#PicoHarp 300  Histogram Data			03/01/2018 06:23:30 PM
#channels per curve
65536
#display curve no.
0	
#memory block no.
0	
#ns/channel
0.0040	
#counts
0	
0	
0	
1	
0	
1	
0	
0	
0	
0	
0	
0	
1	
0	
0	
1	
0	
0	
0	
0	
0	
0	
1	
1	
0	
0	
0	
0	
0	
0	
0	
0	
0	
0	
1	
1	
0	
0	
0	
0	
0	
0	
0	
0	
2	
0	
0	
0	
0	
0	
0	
0	
0	
0	
0	
0	
0	
0	
0	
1	
1	
0	
0	
1	
0	
0	
1	
0	
1	
1	
0	
0	
0	
0	
2	
0	
0	
0	
0	
0	
2	
0	
0	
1	
0	
0	
0	
2	
3	
0	
1	
1	
0	
1	
1	
0	
0	
2	
0	
1	
1	
1	
0	
0	
0	
0	
0	
0	
0	
2	
0	
1	
0	
0	
0	
0	
0	
0	
1	
0	
0	
1	
0	
1	
1	
0	
0	
0	
1	
1	
0	
0	
1	
0	
0	
0	
0	
1	
0	
0	
0	
1	
0	
0	
0	
0	
0	
1	
1	
0	
0	
0	
0	
0	
0	
0	
1	
2	
0	
0	
0	
1	
0	
0	
1	
0	
0	
0	
0	
0	
0	
0	
0	
1	
0	
0	
0	
0	
0	
0	
1	
1	
0	
0	
0	
0	
0	
0	
0	
1	
0	
0	
0	
2	
0	
0	
0	
0	
0	
0	
1	
0	
0	
1	
1	
1	
0	
0	
0	
0	
1	
0	
0	
1	
0	
0	
0	
1	
0	
0	
0	
0	
1	
0	
0	
0	
0	
1	
1	
0	
0	
0	
0	
2	
0	
1	
0	
0	
1	
0	
0	
0	
1	
0	
0	
0	
0	
0	
1	
0	
1	
0	
0	
1	
0	
2	
1	
0	
1	
0	
1	
0	
1	
0	
0	
0	
0	
0	
0	
1	
0	
0	
0	
0	
0	
0	
0	
0	
0	
2	
1	
0	
0	
0	
0	
0	
1	
0	
0	
1	
0	
0	
1	
0	
1	
0	
2	
0	
1	
0	
0	
0	
1	
0	
1	
0	
0	
0	
0	
0	
1	
1	
0	
0	
0	
0	
0	
0	
0	
0	
0	
0	
0	
0	
0	
0	
0	
1	
1	
0	
0	
0	
1	
1	
0	
0	
0	
0	
1	
0	
1	
0	
0	
0	
0	
0	
0	
0	
1	
0	
0	
1	
0	
1	
0	
0	
0	
0	
0	
0	
1	
0	
0	
1	
1	
0	
0	
0	
0	
0	
0	
1	
0	
1	
0	
1	
0	
1	
0	
0	
0	
1	
0	
0	
0	
0	
0	
0	
0	
0	
0	
1	
0	
0	
0	
2	
2	
0	
1	
0	
1	
0	
0	
1	
1	
2	
0	
0	
0	
0	
0	
0	
0	
0	
0	
0	
0	
0	
0	
1	
1	
0	
0	
2	
0	
0	
0	
1	
0	
0	
0	
2	
1	
0	
0	
1	
0	
0	
0	
1	
0	
0	
0	
1	
0	
0	
1	
0	
1	
1	
0	
0	
0	
0	
0	
0	
0	
0	
0	
0	
1	
0	
0	
0	
1	
0	
0	
0	
1	
0	
0	
0	
0	
0	
0	
0	
0	
0	
0	
0	
0	
0	
0	
0	
1	
1	
0	
1	
0	
0	
0	
0	
0	
0	
0	
1	
0	
0	
0	
0	
2	
0	
0	
0	
0	
0	
2	
0	
0	
0	
0	
0	
0	
0	
0	
1	
0	
0	
0	
0	
0	
0	
0	
0	
2	
0	
3	
0	
0	
0	
1	
1	
1	
1	
1	
1	
0	
0	
1	
1	
0	
0	
0	
0	
0	
1	
0	
0	
0	
0	
0	
1	
0	
0	
3	
0	
0	
0	
0	
1	
0	
0	
0	
0	
0	
0	
0	
0	
0	
0	
0	
0	
0	
1	
1	
1	
1	
0	
0	
0	
1	
0	
1	
1	
0	
0	
0	
0	
0	
1	
0	
0	
1	
0	
0	
1	
0	
0	
1	
0	
1	
0	
0	
0	
1	
0	
0	
1	
0	
0	
0	
0	
0	
0	
0	
0	
2	
1	
3	
1	
0	
1	
0	
1	
1	
0	
0	
0	
0	
0	
1	
0	
1	
0	
1	
0	
0	
0	
0	
1	
0	
0	
1	
0	
1	
0	
1	
1	
0	
0	
1	
0	
2	
0	
1	
0	
1	
0	
1	
0	
3	
0	
0	
0	
0	
0	
1	
0	
0	
1	
0	
0	
0	
2	
0	
0	
2	
2	
0	
1	
1	
1	
1	
0	
1	
1	
0	
0	
0	
0	
0	
0	
0	
0	
1	
0	
0	
2	
0	
0	
1	
0	
0	
0	
1	
0	
0	
1	
0	
1	
0	
1	
1	
0	
0	
0	
1	
2	
0	
0	
0	
0	
0	
0	
0	
0	
0	
0	
0	
0	
1	
0	
0	
0	
1	
1	
0	
1	
0	
0	
0	
0	
0	
0	
0	
0	
0	
0	
0	
1	
0	
1	
1	
1	
1	
1	
0	
0	
1	
2	
0	
0	
0	
1	
0	
0	
0	
0	
1	
0	
1	
0	
1	
0	
1	
0	
2	
0	
1	
0	
0	
0	
1	
0	
2	
0	
0	
1	
2	
0	
0	
0	
1	
0	
0	
1	
1	
0	
1	
2	
0	
0	
0	
0	
1	
1	
2	
0	
0	
0	
0	
0	
0	
0	
1	
0	
0	
1	
2	
0	
1	
1	
0	
0	
1	
0	
0	
2	
2	
0	
0	
0	
1	
1	
0	
0	
0	
1	
0	
0	
1	
1	
0	
1	
0	
0	
1	
0	
0	
0	
0	
0	
0	
1	
1	
0	
0	
1	
1	
1	
0	
1	
0	
0	
0	
0	
0	
0	
1	
2	
0	
1	
0	
1	
0	
0	
0	
0	
0	
0	
0	
0	
0	
1	
0	
0	
0	
0	
1	
0	
0	
2	
0	
1	
0	
0	
0	
0	
0	
2	
1	
2	
1	
0	
1	
0	
0	
0	
1	
1	
2	
0	
0	
0	
0	
1	
0	
0	
0	
0	
1	
1	
1	
0	
1	
0	
0	
0	
0	
2	
1	
0	
0	
1	
0	
0	
1	
0	
0	
0	
0	
0	
2	
0	
0	
1	
0	
0	
1	
1	
1	
1	
0	
0	
0	
2	
1	
0	
1	
0	
1	
0	
0	
0	
0	
3	
1	
1	
0	
1	
1	
0	
0	
0	
1	
1	
0	
0	
1	
0	
2	
0	
0	
0	
0	
0	
0	
0	
0	
1	
0	
0	
0	
0	
0	
0	
1	
1	
1	
0	
0	
0	
1	
0	
0	
1	
0	
0	
0	
0	
0	
2	
1	
0	
0	
0	
0	
0	
0	
0	
0	
0	
0	
0	
0	
0	
0	
1	
0	
1	
0	
0	
1	
0	
1	
1	
1	
0	
1	
0	
1	
0	
0	
1	
2	
1	
0	
0	
1	
0	
0	
0	
0	
0	
0	
0	
0	
0	
1	
0	
0	
0	
1	
0	
0	
1	
0	
1	
0	
1	
2	
8	
7	
7	
19	
33	
38	
44	
67	
64	
70	
66	
72	
66	
78	
65	
72	
62	
48	
61	
62	
43	
55	
45	
56	
48	
48	
55	
39	
51	
53	
36	
36	
42	
44	
43	
49	
39	
41	
34	
44	
30	
42	
41	
39	
33	
26	
34	
29	
33	
26	
36	
29	
28	
24	
27	
35	
25	
19	
13	
34	
28	
23	
29	
20	
26	
20	
24	
24	
28	
22	
22	
28	
17	
15	
23	
12	
15	
17	
26	
25	
23	
16	
17	
22	
19	
12	
17	
31	
27	
17	
17	
16	
12	
19	
17	
24	
14	
21	
16	
13	
9	
14	
11	
10	
11	
16	
16	
15	
11	
11	
15	
13	
11	
20	
21	
12	
10	
8	
12	
13	
10	
17	
17	
8	
8	
9	
9	
10	
12	
9	
14	
7	
17	
7	
16	
16	
7	
9	
12	
6	
8	
12	
8	
5	
8	
12	
9	
11	
5	
11	
14	
11	
4	
12	
8	
6	
6	
8	
11	
4	
7	
3	
10	
3	
5	
6	
7	
13	
12	
4	
1	
10	
7	
3	
4	
11	
4	
9	
6	
3	
11	
6	
12	
9	
6	
9	
6	
7	
3	
4	
7	
8	
3	
10	
2	
9	
4	
7	
3	
9	
7	
5	
7	
4	
3	
7	
5	
6	
7	
3	
7	
10	
5	
3	
8	
2	
7	
6	
9	
1	
5	
4	
3	
10	
8	
4	
7	
4	
6	
4	
5	
4	
4	
3	
4	
2	
4	
5	
2	
5	
5	
7	
2	
3	
0	
3	
3	
1	
3	
1	
5	
6	
0	
4	
1	
4	
6	
2	
1	
5	
2	
7	
4	
3	
5	
3	
4	
1	
2	
2	
3	
3	
3	
5	
2	
6	
3	
7	
1	
1	
4	
2	
1	
0	
3	
2	
5	
5	
2	
2	
2	
2	
4	
2	
6	
1	
1	
0	
3	
7	
4	
4	
3	
1	
1	
4	
2	
4	
2	
8	
4	
1	
6	
2	
4	
2	
3	
3	
4	
2	
7	
1	
5	
5	
0	
6	
2	
3	
4	
4	
1	
3	
3	
2	
1	
2	
1	
2	
2	
3	
1	
3	
2	
2	
2	
3	
7	
3	
4	
3	
1	
1	
4	
1	
3	
1	
0	
4	
2	
2	
2	
3	
1	
2	
2	
2	
9	
5	
2	
2	
2	
4	
1	
2	
2	
5	
2	
1	
1	
3	
2	
0	
1	
3	
0	
2	
5	
7	
1	
0	
3	
1	
1	
4	
1	
1	
2	
1	
2	
2	
1	
2	
1	
3	
0	
2	
3	
4	
0	
1	
3	
1	
1	
2	
0	
2	
1	
2	
4	
4	
2	
1	
2	
1	
2	
2	
4	
0	
5	
0	
3	
1	
0	
2	
5	
0	
4	
1	
1	
0	
3	
4	
3	
0	
1	
3	
0	
3	
3	
0	
2	
1	
5	
2	
3	
4	
2	
1	
1	
2	
3	
0	
2	
2	
2	
2	
1	
1	
3	
1	
2	
2	
1	
3	
1	
4	
1	
2	
7	
5	
3	
2	
0	
3	
3	
3	
2	
1	
1	
1	
0	
5	
1	
4	
2	
0	
1	
1	
1	
0	
2	
2	
0	
2	
3	
2	
3	
2	
1	
3	
0	
1	
3	
4	
2	
2	
0	
1	
2	
2	
0	
1	
0	
1	
1	
0	
2	
3	
1	
0	
0	
4	
0	
1	
2	
1	
1	
2	
0	
1	
1	
0	
3	
3	
1	
1	
3	
1	
2	
2	
1	
2	
1	
2	
2	
0	
2	
1	
0	
1	
1	
0	
2	
2	
1	
0	
1	
2	
0	
0	
1	
0	
1	
0	
4	
1	
1	
1	
0	
1	
0	
0	
1	
1	
1	
1	
0	
2	
2	
1	
1	
2	
2	
1	
1	
0	
1	
0	
2	
0	
3	
3	
0	
0	
2	
1	
1	
0	
2	
1	
2	
0	
1	
0	
3	
2	
1	
0	
2	
1	
1	
3	
1	
3	
1	
1	
2	
2	
3	
0	
0	
1	
0	
1	
2	
2	
1	
2	
0	
0	
1	
1	
3	
2	
1	
1	
2	
1	
0	
1	
1	
1	
3	
0	
0	
0	
1	
1	
1	
0	
1	
0	
0	
1	
3	
1	
3	
1	
0	
0	
0	
0	
2	
2	
0	
0	
3	
0	
3	
0	
0	
1	
1	
0	
1	
0	
2	
0	
0	
1	
0	
0	
1	
1	
5	
1	
1	
2	
1	
0	
0	
1	
0	
0	
2	
2	
1	
1	
0	
0	
0	
0	
0	
0	
0	
1	
2	
1	
0	
0	
1	
0	
1	
0	
2	
0	
0	
0	
0	
0	
0	
1	
1	
1	
0	
0	
0	
1	
1	
2	
1	
1	
1	
3	
0	
3	
1	
0	
0	
1	
0	
2	
1	
0	
2	
1	
2	
1	
1	
0	
1	
0	
2	
0	
0	
2	
0	
1	
3	
1	
0	
0	
0	
1	
2	
0	
0	
0	
0	
0	
2	
0	
1	
0	
3	
1	
1	
0	
2	
1	
1	
1	
0	
2	
0	
1	
0	
1	
0	
0	
1	
0	
0	
1	
0	
0	
1	
1	
0	
0	
6	
0	
0	
2	
0	
1	
0	
0	
0	
1	
0	
0	
1	
1	
1	
1	
1	
3	
1	
1	
0	
0	
4	
1	
0	
0	
1	
0	
2	
3	
0	
1	
1	
0	
0	
0	
0	
1	
0	
1	
1	
0	
0	
0	
1	
0	
2	
1	
1	
0	
0	
0	
3	
0	
0	
1	
0	
0	
1	
0	
0	
1	
0	
0	
0	
0	
0	
0	
1	
2	
0	
1	
0	
0	
0	
2	
0	
1	
1	
2	
0	
1	
1	
0	
0	
0	
1	
0	
0	
1	
0	
0	
0	
1	
1	
1	
1	
3	
0	
0	
0	
0	
0	
0	
0	
0	
1	
0	
0	
0	
0	
1	
1	
1	
2	
0	
0	
1	
0	
0	
2	
2	
0	
0	
0	
0	
0	
0	
1	
1	
0	
0	
0	
0	
1	
0	
0	
1	
0	
0	
1	
0	
0	
2	
0	
0	
1	
0	
0	
1	
1	
0	
1	
0	
2	
1	
1	
0	
1	
0	
0	
0	
0	
1	
0	
1	
1	
0	
0	
0	
0	
0	
0	
0	
1	
1	
1	
0	
0	
2	
1	
0	
0	
0	
0	
0	
0	
0	
0	
0	
0	
2	
0	
0	
0	
0	
1	
1	
1	
1	
1	
2	
1	
0	
0	
0	
0	
3	
0	
2	
1	
0	
0	
0	
0	
0	
0	
0	
0	
0	
0	
1	
0	
0	
0	
0	
0	
1	
1	
0	
1	
0	
1	
0	
1	
0	
1	
1	
0	
1	
0	
0	
1	
0	
0	
1	
2	
0	
2	
1	
1	
1	
0	
0	
1	
1	
0	
0	
1	
3	
0	
2	
1	
0	
1	
0	
1	
0	
1	
0	
1	
1	
2	
2	
1	
1	
0	
4	
0	
1	
1	
0	
1	
0	
2	
1	
1	
1	
0	
0	
0	
2	
2	
0	
0	
2	
0	
2	
0	
1	
1	
2	
2	
1	
1	
0	
0	
2	
1	
0	
0	
0	
0	
0	
1	
0	
0	
0	
0	
0	
1	
0	
0	
0	
0	
1	
0	
0	
1	
0	
0	
1	
0	
1	
0	
0	
0	
0	
0	
0	
0	
0	
0	
0	
0	
0	
0	
0	
0	
1	
1	
1	
0	
0	
1	
1	
0	
0	
0	
0	
0	
2	
2	
0	
0	
0	
0	
0	
0	
0	
0	
1	
0	
0	
0	
0	
1	
4	
1	
0	
0	
0	
1	
0	
1	
0	
1	
0	
2	
0	
0	
2	
1	
0	
2	
1	
1	
1	
0	
0	
0	
2	
1	
0	
1	
0	
0	
0	
0	
0	
0	
1	
1	
0	
0	
1	
1	
2	
0	
1	
2	
0	
0	
0	
0	
0	
2	
1	
0	
1	
1	
0	
0	
0	
0	
0	
1	
0	
1	
0	
1	
0	
1	
0	
2	
0	
0	
0	
1	
0	
0	
0	
0	
1	
1	
1	
1	
0	
0	
0	
0	
0	
0	
1	
1	
0	
2	
0	
1	
1	
0	
1	
0	
0	
1	
0	
1	
0	
0	
0	
0	
0	
0	
0	
0	
0	
0	
0	
0	
0	
2	
0	
1	
0	
0	
0	
1	
0	
0	
0	
0	
2	
0	
1	
0	
1	
2	
0	
0	
0	
0	
0	
0	
0	
0	
2	
1	
1	
0	
0	
0	
1	
0	
0	
1	
1	
0	
0	
0	
0	
0	
1	
0	
0	
0	
0	
1	
0	
0	
1	
0	
2	
0	
1	
0	
0	
1	
0	
1	
0	
1	
0	
0	
0	
0	
0	
0	
2	
0	
1	
1	
1	
0	
0	
0	
0	
0	
0	
0	
0	
0	
0	
1	
0	
2	
0	
0	
1	
0	
0	
0	
0	
0	
1	
0	
1	
0	
1	
0	
2	
0	
0	
0	
0	
2	
0	
1	
1	
0	
0	
0	
0	
0	
0	
1	
1	
1	
0	
0	
0	
1	
0	
1	
0	
1	
1	
0	
0	
1	
2	
1	
0	
0	
0	
0	
0	
1	
0	
0	
0	
1	
0	
0	
0	
1	
0	
0	
2	
0	
0	
1	
0	
0	
0	
0	
1	
0	
0	
0	
0	
1	
0	
0	
1	
0	
1	
0	
0	
0	
0	
0	
0	
0	
1	
1	
0	
1	
1	
0	
0	
0	
0	
0	
0	
1	
0	
0	
1	
2	
1	
0	
0	
0	
0	
0	
1	
0	
0	
0	
0	
0	
0	
0	
0	
0	
1	
1	
0	
1	
0	
1	
1	
0	
0	
0	
0	
0	
0	
0	
0	
0	
1	
0	
2	
0	
1	
0	
0	
0	
0	
0	
0	
1	
0	
0	
0	
0	
0	
0	
0	
1	
1	
0	
1	
0	
1	
0	
0	
2	
1	
0	
0	
1	
0	
1	
0	
0	
0	
0	
0	
0	
0	
1	
0	
1	
0	
0	
0	
1	
0	
0	
0	
1	
0	
0	
2	
0	
1	
0	
1	
0	
0	
1	
1	
1	
0	
0	
1	
1	
1	
1	
0	
1	
0	
0	
0	
0	
1	
1	
0	
0	
0	
1	
0	
0	
0	
1	
1	
0	
1	
1	
1	
2	
1	
1	
0	
1	
1	
0	
0	
1	
0	
0	
0	
0	
0	
2	
1	
0	
1	
0	
0	
1	
0	
0	
1	
1	
0	
0	
0	
0	
0	
0	
0	
0	
1	
0	
1	
0	
0	
0	
0	
0	
0	
0	
1	
1	
0	
0	
0	
0	
1	
1	
0	
1	
0	
1	
0	
1	
0	
1	
0	
0	
0	
0	
1	
1	
0	
0	
1	
1	
0	
1	
0	
0	
0	
0	
1	
1	
0	
0	
0	
0	
0	
0	
0	
0	
0	
0	
0	
0	
0	
0	
0	
2	
0	
0	
0	
1	
0	
1	
0	
0	
0	
0	
1	
1	
0	
0	
0	
1	
1	
0	
1	
0	
0	
0	
1	
0	
0	
0	
1	
0	
1	
0	
0	
0	
1	
1	
1	
0	
0	
0	
0	
0	
0	
0	
0	
0	
0	
1	
0	
0	
0	
0	
1	
0	
0	
0	
0	
0	
1	
0	
1	
0	
0	
1	
1	
0	
1	
0	
0	
0	
0	
0	
1	
0	
0	
1	
0	
0	
1	
0	
0	
0	
1	
0	
0	
0	
0	
0	
0	
1	
0	
0	
1	
0	
1	
0	
0	
0	
0	
0	
0	
0	
0	
0	
0	
0	
0	
0	
0	
0	
1	
0	
1	
0	
0	
0	
1	
0	
0	
0	
0	
0	
0	
0	
0	
0	
1	
2	
0	
0	
1	
0	
0	
1	
0	
0	
0	
2	
1	
0	
0	
0	
2	
0	
0	
1	
0	
0	
0	
0	
0	
0	
0	
0	
1	
0	
0	
0	
1	
2	
0	
0	
1	
1	
0	
0	
1	
0	
1	
1	
0	
0	
0	
0	
0	
0	
0	
0	
1	
1	
1	
0	
0	
0	
0	
0	
0	
1	
2	
0	
1	
0	
0	
0	
2	
0	
2	
0	
0	
1	
1	
0	
1	
1	
0	
0	
0	
0	
0	
1	
0	
0	
1	
0	
0	
0	
0	
0	
0	
0	
0	
1	
0	
0	
0	
0	
0	
0	
0	
1	
0	
1	
0	
1	
0	
1	
0	
0	
0	
0	
0	
0	
0	
0	
1	
0	
0	
1	
0	
1	
0	
0	
0	
0	
0	
0	
0	
0	
1	
0	
0	
0	
0	
0	
0	
0	
0	
0	
0	
0	
0	
0	
0	
1	
0	
1	
0	
0	
1	
0	
0	
0	
0	
0	
0	
1	
0	
0	
0	
0	
0	
0	
0	
0	
0	
0	
3	
0	
0	
0	
0	
0	
0	
0	
1	
0	
0	
0	
1	
0	
2	
0	
0	
0	
0	
0	
2	
0	
0	
0	
1	
0	
0	
0	
0	
0	
0	
0	
0	
1	
1	
0	
0	
0	
0	
0	
0	
0	
0	
0	
0	
2	
3	
1	
0	
0	
0	
0	
1	
2	
2	
0	
0	
0	
0	
0	
0	
0	
0	
1	
0	
0	
0	
0	
1	
0	
0	
0	
2	
0	
0	
0	
0	
0	
0	
1	
0	
0	
0	
0	
2	
0	
0	
0	
0	
1	
2	
0	
1	
0	
0	
0	
1	
0	
1	
0	
1	
1	
0	
1	
0	
0	
1	
0	
2	
0	
1	
0	
0	
0	
0	
0	
0	
1	
0	
0	
0	
1	
0	
0	
0	
0	
0	
0	
2	
0	
0	
2	
1	
0	
0	
0	
0	
0	
0	
0	
0	
0	
0	
0	
2	
0	
0	
0	
0	
0	
0	
0	
0	
0	
0	
0	
2	
0	
0	
0	
0	
0	
0	
0	
1	
0	
0	
0	
1	
0	
0	
2	
0	
0	
0	
0	
1	
0	
2	
0	
0	
1	
0	
0	
1	
1	
0	
0	
1	
0	
1	
0	
0	
0	
2	
0	
1	
0	
0	
1	
0	
1	
0	
0	
0	
1	
2	
0	
2	
0	
1	
0	
0	
1	
0	
0	
1	
0	
2	
0	
1	
1	
0	
0	
0	
0	
1	
0	
0	
1	
1	
1	
0	
1	
2	
0	
1	
1	
2	
1	
0	
0	
1	
0	
1	
0	
0	
0	
0	
1	
0	
0	
0	
0	
1	
0	
0	
1	
0	
0	
0	
0	
0	
0	
0	
0	
0	
0	
1	
1	
0	
0	
0	
1	
1	
0	
1	
0	
0	
0	
0	
0	
2	
0	
0	
1	
1	
0	
1	
0	
0	
0	
1	
1	
0	
0	
0	
0	
1	
1	
0	
0	
0	
0	
1	
0	
0	
1	
2	
0	
0	
0	
1	
0	
1	
0	
0	
0	
0	
0	
1	
0	
1	
1	
1	
0	
0	
0	
0	
0	
0	
0	
1	
0	
0	
1	
0	
1	
2	
0	
0	
0	
1	
1	
1	
0	
1	
2	
2	
1	
0	
1	
0	
1	
0	
0	
0	
1	
0	
2	
0	
0	
1	
1	
0	
0	
1	
0	
0	
0	
0	
0	
1	
0	
0	
1	
0	
0	
0	
0	
1	
0	
0	
1	
0	
1	
0	
0	
0	
0	
0	
1	
0	
0	
0	
0	
0	
0	
0	
0	
1	
1	
1	
0	
0	
0	
0	
1	
0	
1	
0	
0	
0	
0	
0	
1	
1	
0	
0	
1	
0	
0	
0	
0	
0	
1	
0	
0	
0	
0	
0	
0	
0	
0	
1	
0	
0	
1	
0	
0	
2	
0	
0	
0	
0	
1	
0	
0	
0	
0	
0	
0	
1	
2	
0	
0	
0	
0	
1	
0	
0	
0	
1	
0	
0	
0	
0	
0	
0	
1	
1	
1	
0	
0	
1	
0	
0	
0	
0	
1	
0	
0	
0	
1	
1	
0	
0	
0	
0	
2	
0	
1	
1	
3	
7	
10	
19	
14	
31	
48	
53	
77	
63	
76	
46	
72	
70	
56	
65	
65	
59	
56	
65	
68	
44	
57	
44	
59	
48	
42	
51	
43	
41	
43	
46	
41	
33	
49	
50	
28	
41	
34	
39	
28	
42	
37	
36	
35	
32	
40	
39	
21	
28	
26	
35	
28	
36	
28	
21	
33	
30	
28	
15	
20	
17	
27	
25	
17	
25	
18	
17	
29	
21	
23	
28	
15	
31	
27	
26	
20	
18	
17	
14	
16	
19	
16	
13	
21	
25	
19	
20	
16	
16	
17	
19	
20	
22	
17	
12	
10	
19	
15	
18	
21	
16	
11	
16	
21	
14	
9	
15	
14	
9	
7	
16	
17	
11	
4	
13	
10	
9	
14	
12	
11	
11	
11	
16	
11	
11	
10	
12	
9	
17	
9	
9	
12	
15	
9	
18	
10	
9	
10	
7	
10	
7	
9	
8	
12	
8	
10	
9	
3	
11	
7	
11	
15	
10	
6	
7	
11	
8	
8	
11	
5	
3	
9	
7	
4	
7	
10	
10	
11	
7	
6	
5	
8	
5	
2	
12	
5	
5	
10	
8	
4	
9	
3	
10	
9	
7	
7	
3	
9	
4	
7	
4	
5	
8	
7	
4	
1	
13	
5	
5	
5	
8	
4	
8	
7	
3	
3	
2	
4	
3	
2	
6	
4	
4	
5	
6	
5	
6	
6	
7	
8	
3	
6	
2	
5	
5	
4	
6	
6	
6	
8	
1	
5	
6	
4	
5	
2	
8	
4	
4	
7	
4	
6	
4	
3	
5	
2	
7	
2	
6	
4	
1	
3	
3	
4	
2	
3	
5	
3	
4	
4	
0	
3	
4	
5	
4	
3	
4	
5	
2	
2	
4	
4	
2	
1	
8	
2	
4	
1	
1	
3	
2	
3	
1	
2	
1	
0	
3	
5	
2	
7	
5	
5	
1	
1	
6	
5	
6	
3	
1	
0	
4	
1	
2	
5	
1	
5	
3	
5	
1	
1	
3	
3	
4	
7	
3	
3	
2	
3	
6	
4	
5	
2	
1	
2	
1	
4	
3	
2	
4	
5	
6	
4	
5	
2	
2	
0	
5	
6	
4	
3	
5	
1	
2	
3	
1	
2	
5	
4	
1	
2	
3	
3	
2	
3	
1	
2	
0	
4	
2	
2	
3	
3	
4	
4	
2	
2	
4	
3	
4	
4	
1	
3	
2	
5	
2	
1	
4	
2	
3	
3	
2	
4	
3	
1	
2	
3	
2	
2	
1	
3	
2	
2	
3	
1	
0	
3	
2	
5	
1	
2	
1	
4	
2	
1	
3	
2	
3	
2	
0	
3	
0	
2	
1	
2	
3	
2	
2	
2	
2	
4	
3	
3	
3	
1	
3	
2	
1	
4	
3	
1	
2	
2	
4	
1	
2	
1	
0	
2	
2	
1	
4	
2	
2	
0	
1	
3	
0	
0	
4	
2	
2	
0	
2	
0	
3	
2	
0	
2	
1	
2	
3	
0	
3	
0	
2	
1	
3	
0	
2	
2	
2	
0	
2	
1	
3	
0	
2	
2	
3	
3	
0	
3	
3	
1	
1	
0	
0	
0	
2	
0	
1	
2	
0	
3	
1	
2	
1	
0	
2	
1	
1	
0	
1	
1	
0	
1	
2	
2	
0	
0	
2	
1	
1	
1	
3	
0	
2	
1	
2	
0	
2	
1	
0	
0	
0	
0	
5	
2	
3	
0	
1	
0	
4	
3	
4	
1	
3	
1	
2	
1	
1	
2	
0	
3	
1	
0	
3	
2	
2	
1	
0	
2	
1	
1	
0	
3	
2	
1	
2	
2	
1	
3	
3	
1	
1	
2	
0	
1	
2	
1	
1	
2	
1	
2	
3	
0	
2	
1	
0	
1	
1	
2	
1	
2	
3	
1	
0	
2	
1	
0	
3	
1	
2	
1	
0	
1	
1	
0	
0	
2	
2	
1	
0	
0	
1	
0	
1	
0	
0	
0	
1	
1	
0	
0	
1	
0	
0	
3	
1	
1	
1	
0	
0	
3	
1	
2	
0	
0	
0	
1	
0	
0	
2	
2	
0	
1	
1	
2	
0	
1	
0	
0	
1	
2	
1	
2	
0	
0	
2	
0	
0	
2	
1	
2	
2	
0	
0	
2	
0	
0	
4	
0	
0	
0	
0	
1	
1	
3	
0	
0	
1	
0	
1	
2	
1	
0	
1	
0	
0	
0	
0	
2	
0	
0	
2	
1	
0	
2	
0	
1	
0	
2	
1	
0	
1	
1	
2	
0	
0	
1	
1	
2	
0	
0	
2	
1	
0	
0	
2	
2	
0	
0	
1	
1	
0	
2	
1	
1	
0	
0	
3	
0	
0	
1	
1	
2	
0	
1	
1	
3	
0	
0	
3	
0	
0	
1	
1	
0	
0	
2	
0	
2	
0	
0	
0	
0	
1	
1	
0	
1	
2	
0	
1	
0	
1	
3	
1	
1	
2	
1	
1	
0	
0	
2	
2	
1	
1	
2	
0	
0	
2	
1	
1	
0	
2	
1	
1	
1	
0	
0	
1	
1	
1	
1	
0	
0	
1	
2	
0	
1	
1	
1	
0	
0	
0	
0	
4	
0	
1	
1	
0	
0	
0	
0	
2	
0	
1	
0	
2	
2	
2	
1	
0	
1	
1	
2	
1	
1	
1	
0	
1	
1	
0	
0	
1	
0	
1	
0	
1	
0	
0	
0	
0	
0	
1	
2	
1	
1	
0	
0	
1	
1	
0	
1	
1	
1	
0	
0	
1	
1	
1	
1	
1	
2	
1	
0	
1	
0	
0	
1	
2	
1	
1	
0	
0	
1	
0	
0	
1	
1	
2	
0	
0	
0	
1	
0	
0	
1	
1	
2	
1	
1	
2	
0	
2	
1	
0	
1	
1	
0	
0	
0	
0	
1	
1	
1	
0	
0	
1	
0	
0	
0	
0	
0	
0	
1	
1	
1	
1	
0	
0	
0	
0	
1	
1	
0	
1	
1	
0	
0	
0	
0	
0	
1	
0	
0	
1	
1	
0	
3	
0	
0	
1	
0	
2	
0	
0	
1	
0	
0	
2	
1	
0	
0	
0	
0	
0	
1	
1	
0	
1	
0	
0	
1	
0	
0	
0	
0	
1	
1	
0	
1	
0	
0	
0	
1	
0	
0	
0	
0	
0	
0	
0	
0	
2	
0	
1	
1	
1	
1	
0	
1	
0	
0	
2	
0	
0	
0	
0	
0	
3	
0	
1	
0	
0	
1	
0	
0	
0	
0	
0	
0	
1	
1	
0	
3	
0	
0	
0	
0	
1	
2	
1	
2	
0	
1	
0	
1	
0	
1	
0	
1	
2	
0	
1	
0	
0	
0	
0	
0	
0	
0	
0	
0	
1	
0	
0	
0	
3	
1	
1	
0	
0	
0	
2	
1	
1	
0	
0	
0	
0	
0	
0	
0	
1	
0	
1	
2	
0	
1	
0	
0	
0	
0	
0	
0	
0	
1	
1	
0	
0	
0	
1	
1	
0	
0	
1	
0	
0	
0	
1	
1	
0	
0	
0	
0	
1	
1	
1	
1	
1	
0	
0	
1	
0	
0	
1	
1	
0	
1	
0	
0	
2	
0	
0	
0	
1	
3	
0	
0	
0	
1	
0	
1	
0	
1	
0	
0	
0	
1	
2	
2	
1	
0	
0	
0	
1	
1	
0	
0	
0	
0	
1	
1	
1	
0	
0	
1	
1	
0	
1	
0	
0	
0	
0	
0	
0	
1	
0	
0	
2	
1	
0	
1	
0	
2	
0	
1	
0	
2	
0	
1	
0	
1	
1	
0	
0	
0	
0	
1	
0	
1	
0	
2	
0	
1	
0	
2	
0	
0	
0	
1	
1	
0	
1	
0	
0	
0	
1	
0	
0	
0	
2	
1	
0	
1	
0	
0	
0	
0	
0	
0	
0	
0	
1	
0	
1	
1	
0	
0	
0	
0	
0	
1	
0	
1	
0	
1	
0	
1	
1	
0	
0	
0	
1	
0	
1	
0	
0	
0	
0	
0	
0	
0	
3	
0	
0	
1	
0	
0	
0	
0	
0	
1	
2	
0	
0	
0	
0	
0	
0	
0	
1	
0	
0	
1	
0	
0	
0	
2	
1	
0	
0	
0	
0	
0	
0	
0	
0	
0	
1	
0	
1	
0	
2	
0	
1	
0	
1	
0	
1	
0	
0	
2	
0	
0	
0	
3	
0	
0	
0	
0	
1	
0	
0	
1	
1	
0	
0	
0	
1	
0	
0	
0	
0	
3	
0	
1	
0	
0	
0	
0	
0	
0	
0	
0	
2	
1	
0	
1	
1	
1	
0	
1	
0	
0	
0	
1	
1	
0	
0	
0	
0	
1	
0	
2	
0	
0	
1	
0	
0	
0	
0	
0	
0	
1	
0	
0	
0	
1	
0	
1	
0	
2	
0	
0	
0	
1	
0	
2	
1	
0	
0	
0	
1	
1	
1	
1	
0	
0	
0	
1	
0	
0	
1	
0	
0	
0	
0	
0	
1	
0	
0	
0	
0	
0	
0	
1	
0	
0	
1	
0	
1	
0	
0	
0	
0	
0	
0	
1	
0	
1	
1	
0	
1	
0	
0	
0	
0	
1	
0	
0	
0	
0	
0	
0	
0	
1	
1	
0	
0	
0	
1	
1	
0	
1	
0	
0	
0	
0	
0	
0	
0	
1	
0	
0	
1	
1	
0	
0	
0	
0	
0	
1	
0	
0	
1	
1	
0	
0	
1	
0	
0	
1	
0	
0	
2	
0	
0	
0	
0	
0	
1	
0	
2	
0	
1	
0	
1	
1	
0	
0	
0	
1	
0	
0	
1	
0	
0	
0	
0	
0	
0	
2	
0	
0	
0	
0	
0	
1	
0	
0	
0	
0	
0	
1	
0	
0	
0	
2	
0	
1	
0	
0	
1	
1	
0	
0	
1	
0	
0	
0	
0	
1	
2	
1	
0	
1	
1	
1	
1	
0	
2	
0	
0	
0	
0	
0	
0	
0	
0	
0	
0	
0	
0	
0	
0	
0	
0	
0	
0	
0	
0	
0	
2	
0	
0	
0	
0	
0	
0	
0	
1	
0	
0	
0	
1	
1	
2	
0	
1	
0	
0	
0	
0	
0	
0	
0	
0	
0	
1	
1	
1	
1	
1	
0	
0	
0	
0	
0	
0	
0	
0	
0	
2	
0	
0	
1	
0	
1	
1	
0	
0	
0	
1	
0	
0	
1	
1	
0	
2	
0	
1	
0	
0	
1	
2	
0	
0	
1	
0	
0	
1	
0	
0	
1	
0	
0	
0	
1	
0	
1	
1	
0	
0	
2	
0	
0	
0	
0	
1	
0	
1	
0	
2	
1	
0	
2	
0	
0	
0	
0	
1	
0	
0	
0	
3	
0	
0	
1	
3	
0	
0	
0	
1	
1	
1	
0	
0	
0	
0	
0	
1	
0	
0	
0	
0	
1	
2	
1	
0	
1	
1	
0	
0	
0	
1	
0	
2	
0	
1	
1	
0	
1	
0	
0	
0	
0	
2	
2	
1	
0	
0	
0	
1	
1	
2	
0	
2	
0	
0	
0	
0	
2	
2	
1	
0	
0	
0	
1	
0	
0	
0	
0	
0	
1	
0	
0	
0	
0	
0	
0	
0	
0	
1	
0	
0	
0	
0	
0	
1	
0	
0	
0	
0	
0	
0	
0	
0	
0	
0	
0	
1	
1	
0	
0	
0	
1	
0	
0	
1	
0	
0	
2	
0	
0	
0	
2	
1	
0	
0	
0	
0	
1	
0	
0	
0	
0	
0	
1	
0	
0	
0	
0	
0	
1	
0	
0	
1	
1	
0	
0	
2	
1	
1	
1	
0	
0	
0	
0	
2	
1	
0	
0	
1	
0	
0	
0	
1	
0	
0	
0	
0	
1	
1	
1	
1	
0	
1	
2	
1	
0	
0	
0	
0	
0	
0	
0	
0	
0	
1	
0	
0	
0	
1	
0	
0	
1	
0	
0	
0	
0	
1	
0	
1	
1	
1	
1	
0	
0	
2	
0	
1	
0	
0	
0	
0	
0	
0	
0	
0	
0	
0	
0	
1	
1	
1	
1	
1	
0	
0	
1	
0	
1	
0	
0	
1	
0	
0	
0	
0	
3	
0	
2	
1	
0	
0	
1	
0	
0	
0	
0	
0	
0	
0	
0	
0	
0	
0	
0	
0	
0	
0	
0	
0	
0	
0	
1	
1	
0	
0	
0	
1	
0	
0	
0	
0	
1	
1	
2	
0	
0	
0	
0	
0	
1	
0	
1	
2	
0	
3	
2	
0	
1	
0	
2	
2	
0	
0	
0	
0	
1	
0	
0	
0	
0	
0	
0	
1	
0	
1	
2	
0	
0	
0	
0	
2	
0	
2	
0	
1	
0	
0	
1	
0	
0	
2	
0	
0	
1	
0	
1	
0	
0	
1	
2	
1	
0	
0	
0	
2	
0	
0	
1	
1	
2	
0	
0	
0	
0	
1	
1	
0	
0	
0	
2	
0	
0	
0	
1	
0	
0	
0	
0	
0	
0	
0	
1	
0	
0	
0	
0	
0	
0	
0	
1	
0	
0	
1	
0	
0	
0	
0	
0	
0	
1	
0	
0	
0	
0	
1	
0	
0	
0	
0	
0	
0	
0	
0	
1	
0	
1	
0	
0	
0	
2	
0	
1	
0	
0	
0	
0	
1	
2	
0	
0	
0	
1	
0	
1	
3	
1	
0	
0	
0	
0	
0	
0	
0	
0	
0	
0	
1	
0	
0	
0	
0	
2	
0	
0	
0	
2	
0	
1	
0	
0	
1	
0	
1	
0	
0	
0	
0	
0	
0	
1	
0	
0	
1	
0	
2	
2	
1	
0	
0	
0	
1	
0	
0	
0	
0	
0	
0	
0	
2	
0	
0	
0	
0	
0	
0	
0	
1	
1	
1	
0	
1	
1	
1	
1	
0	
0	
0	
0	
0	
0	
1	
0	
0	
1	
0	
0	
0	
0	
0	
0	
0	
0	
0	
1	
0	
0	
0	
0	
1	
1	
0	
0	
0	
0	
0	
0	
1	
0	
0	
0	
0	
0	
0	
0	
1	
0	
1	
0	
0	
1	
1	
0	
1	
0	
0	
0	
0	
0	
0	
1	
0	
0	
0	
1	
0	
0	
0	
1	
2	
0	
0	
1	
1	
1	
0	
1	
1	
0	
0	
0	
2	
1	
0	
0	
0	
0	
0	
1	
0	
1	
0	
1	
1	
0	
1	
0	
1	
1	
0	
1	
0	
3	
1	
1	
0	
0	
0	
0	
0	
0	
1	
0	
0	
0	
1	
2	
0	
0	
1	
1	
0	
0	
0	
0	
1	
0	
1	
0	
0	
1	
0	
1	
1	
1	
1	
0	
0	
1	
2	
0	
0	
0	
0	
0	
0	
0	
1	
1	
1	
0	
1	
1	
0	
2	
0	
0	
0	
1	
0	
1	
0	
0	
2	
3	
1	
0	
0	
0	
1	
0	
1	
0	
0	
0	
2	
1	
1	
1	
1	
0	
2	
1	
1	
1	
0	
1	
0	
1	
0	
1	
0	
0	
1	
0	
1	
0	
2	
0	
0	
1	
0	
0	
0	
1	
1	
1	
2	
0	
0	
0	
1	
2	
1	
0	
0	
1	
0	
0	
0	
2	
0	
0	
0	
1	
0	
0	
0	
0	
0	
0	
0	
2	
0	
2	
1	
0	
1	
0	
1	
2	
0	
1	
1	
0	
0	
2	
0	
0	
1	
1	
3	
0	
0	
1	
0	
1	
1	
0	
2	
0	
0	
0	
1	
0	
0	
0	
0	
1	
0	
1	
1	
0	
0	
1	
1	
0	
1	
0	
0	
0	
3	
0	
0	
0	
0	
0	
0	
0	
1	
0	
0	
0	
1	
0	
0	
1	
0	
0	
0	
0	
1	
0	
0	
0	
1	
0	
1	
0	
0	
0	
0	
0	
0	
1	
0	
0	
0	
0	
0	
0	
1	
0	
0	
0	
0	
0	
0	
0	
0	
1	
0	
0	
0	
0	
0	
0	
1	
0	
0	
0	
1	
0	
0	
0	
1	
2	
0	
1	
0	
0	
0	
1	
0	
1	
2	
0	
1	
0	
1	
0	
0	
0	
0	
0	
1	
1	
0	
0	
0	
1	
0	
0	
1	
0	
0	
1	
2	
2	
9	
17	
23	
40	
51	
65	
67	
59	
63	
65	
84	
63	
54	
65	
73	
59	
44	
56	
51	
46	
58	
59	
38	
35	
52	
37	
52	
45	
48	
44	
32	
31	
35	
38	
48	
37	
49	
35	
25	
39	
29	
28	
26	
27	
36	
48	
39	
16	
27	
29	
23	
24	
27	
28	
26	
32	
27	
28	
28	
33	
26	
38	
11	
18	
23	
25	
25	
27	
28	
21	
20	
23	
22	
23	
21	
24	
15	
23	
15	
18	
26	
17	
22	
20	
19	
20	
23	
12	
18	
22	
20	
15	
14	
19	
13	
22	
17	
15	
23	
13	
17	
19	
14	
10	
10	
13	
12	
7	
18	
12	
18	
18	
18	
16	
15	
6	
10	
13	
13	
9	
9	
10	
14	
13	
9	
12	
15	
6	
5	
7	
12	
13	
9	
7	
8	
7	
9	
10	
9	
12	
10	
7	
7	
4	
5	
6	
9	
7	
13	
11	
9	
14	
11	
5	
10	
5	
7	
1	
5	
9	
4	
2	
14	
7	
5	
5	
9	
12	
10	
3	
3	
10	
10	
9	
10	
13	
4	
3	
7	
5	
2	
3	
4	
1	
4	
7	
2	
6	
3	
7	
5	
3	
13	
4	
5	
5	
4	
6	
8	
4	
6	
2	
9	
4	
6	
8	
5	
5	
9	
7	
7	
3	
2	
5	
4	
4	
3	
6	
6	
1	
7	
2	
4	
3	
2	
8	
4	
6	
6	
4	
4	
4	
3	
1	
3	
6	
4	
4	
5	
3	
4	
4	
1	
1	
1	
1	
7	
3	
4	
5	
3	
1	
6	
6	
0	
4	
9	
3	
5	
3	
7	
3	
1	
4	
3	
6	
4	
3	
3	
4	
5	
4	
3	
2	
5	
1	
2	
4	
5	
3	
3	
9	
3	
3	
5	
7	
3	
2	
6	
3	
6	
4	
2	
2	
1	
4	
3	
2	
1	
2	
2	
4	
6	
1	
3	
7	
5	
3	
2	
3	
4	
1	
5	
3	
2	
4	
4	
5	
2	
5	
5	
1	
3	
6	
0	
4	
0	
4	
0	
3	
1	
3	
2	
2	
4	
4	
2	
1	
3	
2	
2	
4	
3	
4	
3	
1	
4	
2	
2	
3	
3	
3	
8	
4	
5	
4	
6	
4	
2	
4	
0	
3	
2	
3	
0	
2	
2	
5	
0	
5	
5	
2	
2	
6	
3	
2	
4	
3	
2	
3	
3	
3	
3	
1	
1	
1	
2	
2	
5	
4	
2	
2	
2	
3	
2	
2	
2	
2	
1	
2	
2	
1	
0	
0	
1	
1	
1	
1	
3	
2	
2	
3	
3	
2	
1	
2	
3	
2	
1	
3	
0	
1	
4	
1	
5	
7	
1	
2	
1	
1	
3	
2	
1	
0	
0	
0	
2	
2	
0	
3	
2	
1	
1	
2	
3	
2	
2	
4	
4	
0	
2	
2	
2	
1	
3	
0	
3	
2	
0	
4	
1	
3	
2	
1	
0	
3	
1	
2	
2	
2	
1	
1	
3	
3	
3	
0	
1	
0	
1	
1	
1	
2	
2	
2	
3	
4	
1	
1	
1	
0	
0	
0	
3	
1	
1	
2	
0	
1	
1	
1	
0	
3	
0	
0	
2	
0	
0	
3	
1	
1	
2	
1	
3	
1	
0	
0	
1	
0	
3	
1	
1	
0	
0	
1	
1	
1	
1	
2	
1	
0	
0	
1	
0	
1	
0	
0	
0	
1	
3	
4	
2	
0	
2	
1	
1	
2	
0	
2	
1	
1	
1	
0	
0	
1	
2	
1	
3	
1	
1	
2	
2	
1	
2	
3	
0	
1	
2	
0	
1	
2	
2	
1	
0	
0	
1	
0	
0	
1	
1	
2	
4	
1	
0	
2	
0	
1	
0	
1	
0	
1	
0	
1	
1	
0	
0	
3	
1	
0	
1	
0	
1	
0	
3	
2	
1	
2	
1	
0	
3	
1	
0	
1	
1	
1	
0	
1	
1	
3	
2	
1	
0	
0	
1	
0	
1	
0	
1	
0	
0	
1	
0	
1	
0	
0	
1	
0	
0	
2	
0	
1	
1	
1	
0	
3	
1	
0	
3	
2	
4	
3	
1	
1	
1	
0	
2	
0	
0	
0	
1	
1	
0	
3	
1	
0	
3	
0	
0	
0	
2	
1	
0	
2	
1	
0	
0	
0	
2	
1	
2	
1	
2	
2	
0	
0	
1	
1	
0	
0	
0	
1	
2	
2	
2	
0	
2	
0	
0	
1	
2	
1	
0	
0	
1	
1	
0	
1	
2	
0	
3	
0	
1	
2	
1	
1	
0	
0	
1	
2	
0	
1	
1	
0	
1	
1	
2	
4	
1	
0	
1	
1	
0	
0	
0	
0	
0	
0	
1	
0	
0	
2	
1	
0	
0	
0	
0	
3	
0	
0	
2	
0	
0	
1	
1	
0	
0	
1	
0	
2	
1	
0	
0	
0	
1	
0	
0	
2	
1	
0	
0	
2	
1	
0	
1	
0	
3	
5	
0	
1	
1	
1	
1	
3	
0	
0	
0	
1	
1	
0	
1	
0	
1	
0	
3	
0	
0	
2	
2	
1	
0	
1	
0	
0	
1	
0	
0	
0	
1	
1	
0	
3	
0	
1	
1	
3	
1	
1	
0	
0	
2	
4	
1	
1	
0	
2	
1	
0	
2	
1	
2	
2	
1	
2	
0	
0	
1	
1	
1	
2	
0	
1	
0	
1	
1	
2	
1	
0	
0	
1	
0	
3	
0	
0	
0	
1	
0	
0	
0	
1	
1	
1	
3	
0	
1	
2	
0	
1	
1	
0	
0	
2	
0	
1	
2	
2	
0	
0	
0	
3	
2	
0	
1	
0	
0	
1	
0	
0	
1	
0	
1	
0	
0	
0	
0	
0	
1	
1	
0	
0	
0	
0	
1	
0	
1	
1	
0	
0	
2	
0	
0	
1	
0	
0	
1	
1	
1	
1	
0	
2	
1	
1	
1	
0	
0	
0	
0	
1	
0	
3	
1	
0	
0	
0	
0	
1	
2	
0	
0	
0	
0	
1	
1	
0	
0	
1	
1	
2	
0	
0	
0	
0	
0	
1	
0	
0	
1	
0	
0	
0	
0	
1	
2	
1	
0	
0	
1	
0	
2	
0	
0	
1	
0	
1	
1	
0	
0	
0	
0	
1	
1	
1	
4	
0	
2	
1	
0	
0	
0	
0	
0	
1	
1	
0	
0	
1	
1	
0	
0	
0	
2	
1	
1	
0	
0	
0	
0	
1	
0	
1	
1	
0	
0	
1	
0	
1	
1	
0	
2	
1	
1	
0	
0	
0	
1	
0	
0	
1	
0	
0	
0	
1	
0	
1	
0	
1	
1	
0	
2	
0	
0	
0	
0	
0	
0	
0	
1	
0	
1	
0	
0	
0	
1	
1	
1	
0	
0	
0	
2	
2	
0	
0	
0	
0	
2	
0	
0	
0	
0	
0	
0	
0	
0	
1	
0	
0	
2	
0	
0	
0	
0	
1	
0	
4	
0	
1	
0	
0	
0	
0	
1	
0	
0	
1	
0	
0	
0	
0	
0	
0	
0	
0	
0	
0	
1	
0	
0	
0	
0	
1	
0	
1	
2	
0	
0	
1	
0	
0	
0	
1	
0	
0	
0	
1	
0	
0	
1	
0	
0	
0	
0	
0	
0	
0	
0	
1	
0	
1	
1	
0	
0	
1	
0	
0	
0	
0	
0	
0	
1	
0	
2	
0	
1	
1	
0	
0	
0	
0	
0	
0	
0	
0	
1	
1	
0	
1	
0	
0	
0	
1	
1	
1	
0	
0	
1	
0	
0	
0	
1	
4	
2	
1	
1	
0	
2	
2	
2	
0	
0	
0	
0	
0	
0	
1	
0	
0	
0	
0	
2	
0	
0	
1	
0	
0	
0	
0	
0	
2	
0	
2	
1	
0	
0	
0	
1	
1	
0	
1	
0	
0	
1	
1	
0	
0	
0	
0	
0	
1	
1	
4	
0	
0	
1	
1	
0	
2	
0	
0	
2	
1	
1	
0	
1	
0	
0	
0	
0	
0	
1	
0	
0	
0	
0	
0	
1	
0	
2	
0	
0	
0	
0	
0	
0	
1	
0	
0	
1	
0	
1	
1	
0	
1	
1	
0	
1	
0	
0	
1	
0	
0	
1	
0	
0	
2	
1	
0	
1	
0	
0	
0	
0	
0	
1	
0	
2	
1	
1	
